Single-Level_Breite_Wigner
Temp do meio:       +1.500000000000000e+03[K]
Massa do isotopo:   +2.360050000000000e+02

ene_val                 sig_val[radiation_xs]           psi                     x                   smr*gg                  chi1          

+9.000000000000000e+00 +6.941559365347779e-01 +4.643783419892603e-04 -4.708146439112053e+01 +1.243415894152918e+03 +2.949591863558164e-01 
+9.002000000000001e+00 +6.965099204626477e-01 +4.663178973628439e-04 -4.698486212623356e+01 +1.243276441976938e+03 +2.949265748854399e-01 
+9.004000000000001e+00 +6.988784270884187e-01 +4.682695282063007e-04 -4.688825996650556e+01 +1.243137036269043e+03 +2.948939742813276e-01 
+9.006000000000002e+00 +7.012615758150986e-01 +4.702333344380694e-04 -4.679165791191836e+01 +1.242997677003430e+03 +2.948613845374468e-01 
+9.008000000000003e+00 +7.036594872935318e-01 +4.722094170228148e-04 -4.669505596245384e+01 +1.242858364154322e+03 +2.948288056477687e-01 
+9.010000000000003e+00 +7.060722834388085e-01 +4.741978779851747e-04 -4.659845411809386e+01 +1.242719097695957e+03 +2.947962376062698e-01 
+9.012000000000004e+00 +7.085000874468864e-01 +4.761988204236989e-04 -4.650185237882031e+01 +1.242579877602595e+03 +2.947636804069309e-01 
+9.014000000000005e+00 +7.109430238114858e-01 +4.782123485250144e-04 -4.640525074461507e+01 +1.242440703848518e+03 +2.947311340437375e-01 
+9.016000000000005e+00 +7.134012183413364e-01 +4.802385675782794e-04 -4.630864921546002e+01 +1.242301576408023e+03 +2.946985985106800e-01 
+9.018000000000006e+00 +7.158747981776269e-01 +4.822775839898151e-04 -4.621204779133706e+01 +1.242162495255432e+03 +2.946660738017535e-01 
+9.020000000000007e+00 +7.183638918118077e-01 +4.843295052980220e-04 -4.611544647222814e+01 +1.242023460365084e+03 +2.946335599109572e-01 
+9.022000000000007e+00 +7.208686291036887e-01 +4.863944401885533e-04 -4.601884525811514e+01 +1.241884471711340e+03 +2.946010568322958e-01 
+9.024000000000008e+00 +7.233891412998167e-01 +4.884724985097221e-04 -4.592224414897999e+01 +1.241745529268578e+03 +2.945685645597778e-01 
+9.026000000000009e+00 +7.259255610521926e-01 +4.905637912881811e-04 -4.582564314480465e+01 +1.241606633011199e+03 +2.945360830874169e-01 
+9.028000000000009e+00 +7.284780224373177e-01 +4.926684307448917e-04 -4.572904224557104e+01 +1.241467782913620e+03 +2.945036124092315e-01 
+9.030000000000010e+00 +7.310466609755536e-01 +4.947865303113431e-04 -4.563244145126112e+01 +1.241328978950284e+03 +2.944711525192440e-01 
+9.032000000000011e+00 +7.336316136508103e-01 +4.969182046460591e-04 -4.553584076185684e+01 +1.241190221095647e+03 +2.944387034114821e-01 
+9.034000000000011e+00 +7.362330189306028e-01 +4.990635696513997e-04 -4.543924017734017e+01 +1.241051509324189e+03 +2.944062650799781e-01 
+9.036000000000012e+00 +7.388510167864589e-01 +5.012227424906640e-04 -4.534263969769310e+01 +1.240912843610408e+03 +2.943738375187683e-01 
+9.038000000000013e+00 +7.414857487146487e-01 +5.033958416054612e-04 -4.524603932289759e+01 +1.240774223928822e+03 +2.943414207218943e-01 
+9.040000000000013e+00 +7.441373577573301e-01 +5.055829867334286e-04 -4.514943905293566e+01 +1.240635650253971e+03 +2.943090146834020e-01 
+9.042000000000014e+00 +7.468059885240436e-01 +5.077842989262383e-04 -4.505283888778928e+01 +1.240497122560411e+03 +2.942766193973419e-01 
+9.044000000000015e+00 +7.494917872135949e-01 +5.099999005679364e-04 -4.495623882744047e+01 +1.240358640822720e+03 +2.942442348577692e-01 
+9.046000000000015e+00 +7.521949016363240e-01 +5.122299153935955e-04 -4.485963887187125e+01 +1.240220205015494e+03 +2.942118610587436e-01 
+9.048000000000016e+00 +7.549154812368102e-01 +5.144744685083367e-04 -4.476303902106364e+01 +1.240081815113353e+03 +2.941794979943296e-01 
+9.050000000000017e+00 +7.576536771169438e-01 +5.167336864066612e-04 -4.466643927499967e+01 +1.239943471090930e+03 +2.941471456585960e-01 
+9.052000000000017e+00 +7.604096420594310e-01 +5.190076969921347e-04 -4.456983963366138e+01 +1.239805172922883e+03 +2.941148040456163e-01 
+9.054000000000018e+00 +7.631835305517590e-01 +5.212966295974657e-04 -4.447324009703082e+01 +1.239666920583886e+03 +2.940824731494688e-01 
+9.056000000000019e+00 +7.659754988105847e-01 +5.236006150049311e-04 -4.437664066509004e+01 +1.239528714048637e+03 +2.940501529642360e-01 
+9.058000000000019e+00 +7.687857048065287e-01 +5.259197854671453e-04 -4.428004133782112e+01 +1.239390553291848e+03 +2.940178434840053e-01 
+9.060000000000020e+00 +7.716143082895037e-01 +5.282542747282731e-04 -4.418344211520611e+01 +1.239252438288255e+03 +2.939855447028685e-01 
+9.062000000000021e+00 +7.744614708144999e-01 +5.306042180456221e-04 -4.408684299722710e+01 +1.239114369012611e+03 +2.939532566149222e-01 
+9.064000000000021e+00 +7.773273557677998e-01 +5.329697522115989e-04 -4.399024398386618e+01 +1.238976345439690e+03 +2.939209792142669e-01 
+9.066000000000022e+00 +7.802121283937470e-01 +5.353510155761275e-04 -4.389364507510544e+01 +1.238838367544283e+03 +2.938887124950085e-01 
+9.068000000000023e+00 +7.831159558220081e-01 +5.377481480694734e-04 -4.379704627092698e+01 +1.238700435301205e+03 +2.938564564512569e-01 
+9.070000000000023e+00 +7.860390070953276e-01 +5.401612912254852e-04 -4.370044757131294e+01 +1.238562548685286e+03 +2.938242110771268e-01 
+9.072000000000024e+00 +7.889814531978659e-01 +5.425905882053239e-04 -4.360384897624540e+01 +1.238424707671378e+03 +2.937919763667372e-01 
+9.074000000000025e+00 +7.919434670840294e-01 +5.450361838215980e-04 -4.350725048570651e+01 +1.238286912234350e+03 +2.937597523142119e-01 
+9.076000000000025e+00 +7.949252237078787e-01 +5.474982245629861e-04 -4.341065209967842e+01 +1.238149162349094e+03 +2.937275389136791e-01 
+9.078000000000026e+00 +7.979269000531304e-01 +5.499768586193530e-04 -4.331405381814324e+01 +1.238011457990518e+03 +2.936953361592717e-01 
+9.080000000000027e+00 +8.009486751637269e-01 +5.524722359073370e-04 -4.321745564108313e+01 +1.237873799133551e+03 +2.936631440451268e-01 
+9.082000000000027e+00 +8.039907301749909e-01 +5.549845080964360e-04 -4.312085756848027e+01 +1.237736185753141e+03 +2.936309625653861e-01 
+9.084000000000028e+00 +8.070532483454272e-01 +5.575138286356190e-04 -4.302425960031680e+01 +1.237598617824255e+03 +2.935987917141962e-01 
+9.086000000000029e+00 +8.101364150891208e-01 +5.600603527804478e-04 -4.292766173657493e+01 +1.237461095321879e+03 +2.935666314857077e-01 
+9.088000000000029e+00 +8.132404180088371e-01 +5.626242376207753e-04 -4.283106397723681e+01 +1.237323618221020e+03 +2.935344818740759e-01 
+9.090000000000030e+00 +8.163654469297245e-01 +5.652056421089598e-04 -4.273446632228465e+01 +1.237186186496703e+03 +2.935023428734608e-01 
+9.092000000000031e+00 +8.195116939337304e-01 +5.678047270886541e-04 -4.263786877170064e+01 +1.237048800123971e+03 +2.934702144780266e-01 
+9.094000000000031e+00 +8.226793533947057e-01 +5.704216553241927e-04 -4.254127132546700e+01 +1.236911459077889e+03 +2.934380966819420e-01 
+9.096000000000032e+00 +8.258686220142334e-01 +5.730565915305642e-04 -4.244467398356593e+01 +1.236774163333539e+03 +2.934059894793806e-01 
+9.098000000000033e+00 +8.290796988582074e-01 +5.757097024040225e-04 -4.234807674597967e+01 +1.236636912866023e+03 +2.933738928645199e-01 
+9.100000000000033e+00 +8.323127853940873e-01 +5.783811566532530e-04 -4.225147961269042e+01 +1.236499707650461e+03 +2.933418068315424e-01 
+9.102000000000034e+00 +8.355680855290508e-01 +5.810711250312927e-04 -4.215488258368045e+01 +1.236362547661995e+03 +2.933097313746347e-01 
+9.104000000000035e+00 +8.388458056488186e-01 +5.837797803680109e-04 -4.205828565893201e+01 +1.236225432875783e+03 +2.932776664879879e-01 
+9.106000000000035e+00 +8.421461546573633e-01 +5.865072976033316e-04 -4.196168883842732e+01 +1.236088363267004e+03 +2.932456121657979e-01 
+9.108000000000036e+00 +8.454693440174683e-01 +5.892538538211492e-04 -4.186509212214867e+01 +1.235951338810854e+03 +2.932135684022647e-01 
+9.110000000000037e+00 +8.488155877920496e-01 +5.920196282838998e-04 -4.176849551007833e+01 +1.235814359482552e+03 +2.931815351915929e-01 
+9.112000000000037e+00 +8.521851026864766e-01 +5.948048024679587e-04 -4.167189900219856e+01 +1.235677425257332e+03 +2.931495125279916e-01 
+9.114000000000038e+00 +8.555781080917095e-01 +5.976095600997137e-04 -4.157530259849167e+01 +1.235540536110449e+03 +2.931175004056741e-01 
+9.116000000000039e+00 +8.589948261284253e-01 +6.004340871924692e-04 -4.147870629893995e+01 +1.235403692017176e+03 +2.930854988188586e-01 
+9.118000000000039e+00 +8.624354816920435e-01 +6.032785720840970e-04 -4.138211010352568e+01 +1.235266892952806e+03 +2.930535077617674e-01 
+9.120000000000040e+00 +8.659003024987758e-01 +6.061432054755465e-04 -4.128551401223118e+01 +1.235130138892650e+03 +2.930215272286273e-01 
+9.122000000000041e+00 +8.693895191326365e-01 +6.090281804701513e-04 -4.118891802503878e+01 +1.234993429812039e+03 +2.929895572136694e-01 
+9.124000000000041e+00 +8.729033650935681e-01 +6.119336926138612e-04 -4.109232214193079e+01 +1.234856765686322e+03 +2.929575977111295e-01 
+9.126000000000042e+00 +8.764420768465155e-01 +6.148599399362812e-04 -4.099572636288956e+01 +1.234720146490869e+03 +2.929256487152477e-01 
+9.128000000000043e+00 +8.800058938716967e-01 +6.178071229926876e-04 -4.089913068789742e+01 +1.234583572201065e+03 +2.928937102202684e-01 
+9.130000000000043e+00 +8.835950587159149e-01 +6.207754449069315e-04 -4.080253511693672e+01 +1.234447042792316e+03 +2.928617822204406e-01 
+9.132000000000044e+00 +8.872098170451129e-01 +6.237651114153600e-04 -4.070593964998980e+01 +1.234310558240049e+03 +2.928298647100177e-01 
+9.134000000000045e+00 +8.908504176979982e-01 +6.267763309116475e-04 -4.060934428703906e+01 +1.234174118519706e+03 +2.927979576832572e-01 
+9.136000000000045e+00 +8.945171127409826e-01 +6.298093144927113e-04 -4.051274902806685e+01 +1.234037723606750e+03 +2.927660611344213e-01 
+9.138000000000046e+00 +8.982101575243551e-01 +6.328642760056553e-04 -4.041615387305555e+01 +1.233901373476662e+03 +2.927341750577767e-01 
+9.140000000000047e+00 +9.019298107397029e-01 +6.359414320957624e-04 -4.031955882198756e+01 +1.233765068104944e+03 +2.927022994475942e-01 
+9.142000000000047e+00 +9.056763344787094e-01 +6.390410022556269e-04 -4.022296387484526e+01 +1.233628807467112e+03 +2.926704342981492e-01 
+9.144000000000048e+00 +9.094499942932858e-01 +6.421632088754007e-04 -4.012636903161106e+01 +1.233492591538705e+03 +2.926385796037211e-01 
+9.146000000000049e+00 +9.132510592571146e-01 +6.453082772942191e-04 -4.002977429226738e+01 +1.233356420295281e+03 +2.926067353585943e-01 
+9.148000000000049e+00 +9.170798020286360e-01 +6.484764358528253e-04 -3.993317965679662e+01 +1.233220293712412e+03 +2.925749015570571e-01 
+9.150000000000050e+00 +9.209364989155473e-01 +6.516679159474553e-04 -3.983658512518122e+01 +1.233084211765694e+03 +2.925430781934023e-01 
+9.152000000000051e+00 +9.248214299407597e-01 +6.548829520849434e-04 -3.973999069740362e+01 +1.232948174430739e+03 +2.925112652619270e-01 
+9.154000000000051e+00 +9.287348789100336e-01 +6.581217819392190e-04 -3.964339637344626e+01 +1.232812181683178e+03 +2.924794627569329e-01 
+9.156000000000052e+00 +9.326771334811182e-01 +6.613846464090630e-04 -3.954680215329157e+01 +1.232676233498660e+03 +2.924476706727257e-01 
+9.158000000000053e+00 +9.366484852346690e-01 +6.646717896773417e-04 -3.945020803692203e+01 +1.232540329852854e+03 +2.924158890036159e-01 
+9.160000000000053e+00 +9.406492297468169e-01 +6.679834592716156e-04 -3.935361402432010e+01 +1.232404470721447e+03 +2.923841177439178e-01 
+9.162000000000054e+00 +9.446796666635086e-01 +6.713199061262341e-04 -3.925702011546825e+01 +1.232268656080145e+03 +2.923523568879506e-01 
+9.164000000000055e+00 +9.487400997767088e-01 +6.746813846459638e-04 -3.916042631034897e+01 +1.232132885904670e+03 +2.923206064300374e-01 
+9.166000000000055e+00 +9.528308371024449e-01 +6.780681527711732e-04 -3.906383260894474e+01 +1.231997160170767e+03 +2.922888663645059e-01 
+9.168000000000056e+00 +9.569521909607900e-01 +6.814804720446117e-04 -3.896723901123805e+01 +1.231861478854196e+03 +2.922571366856880e-01 
+9.170000000000057e+00 +9.611044780578563e-01 +6.849186076798773e-04 -3.887064551721142e+01 +1.231725841930736e+03 +2.922254173879200e-01 
+9.172000000000057e+00 +9.652880195698335e-01 +6.883828286315842e-04 -3.877405212684735e+01 +1.231590249376187e+03 +2.921937084655424e-01 
+9.174000000000058e+00 +9.695031412291165e-01 +6.918734076672687e-04 -3.867745884012837e+01 +1.231454701166363e+03 +2.921620099129003e-01 
+9.176000000000059e+00 +9.737501734126671e-01 +6.953906214411578e-04 -3.858086565703700e+01 +1.231319197277101e+03 +2.921303217243428e-01 
+9.178000000000059e+00 +9.780294512325730e-01 +6.989347505697689e-04 -3.848427257755579e+01 +1.231183737684254e+03 +2.920986438942234e-01 
+9.180000000000060e+00 +9.823413146289686e-01 +7.025060797094742e-04 -3.838767960166725e+01 +1.231048322363694e+03 +2.920669764169000e-01 
+9.182000000000061e+00 +9.866861084652804e-01 +7.061048976360084e-04 -3.829108672935396e+01 +1.230912951291311e+03 +2.920353192867348e-01 
+9.184000000000061e+00 +9.910641826260428e-01 +7.097314973261024e-04 -3.819449396059846e+01 +1.230777624443013e+03 +2.920036724980941e-01 
+9.186000000000062e+00 +9.954758921171388e-01 +7.133861760411572e-04 -3.809790129538334e+01 +1.230642341794728e+03 +2.919720360453488e-01 
+9.188000000000063e+00 +9.999215971687377e-01 +7.170692354131461e-04 -3.800130873369115e+01 +1.230507103322401e+03 +2.919404099228737e-01 
+9.190000000000063e+00 +1.004401663340914e+00 +7.207809815327630e-04 -3.790471627550447e+01 +1.230371909001996e+03 +2.919087941250483e-01 
+9.192000000000064e+00 +1.008916461632064e+00 +7.245217250398909e-04 -3.780812392080591e+01 +1.230236758809495e+03 +2.918771886462562e-01 
+9.194000000000065e+00 +1.013466368590187e+00 +7.282917812164588e-04 -3.771153166957805e+01 +1.230101652720897e+03 +2.918455934808852e-01 
+9.196000000000065e+00 +1.018051766427140e+00 +7.320914700817869e-04 -3.761493952180349e+01 +1.229966590712222e+03 +2.918140086233274e-01 
+9.198000000000066e+00 +1.022673043135969e+00 +7.359211164904735e-04 -3.751834747746486e+01 +1.229831572759506e+03 +2.917824340679792e-01 
+9.200000000000067e+00 +1.027330592611396e+00 +7.397810502329256e-04 -3.742175553654477e+01 +1.229696598838804e+03 +2.917508698092413e-01 
+9.202000000000067e+00 +1.032024814773609e+00 +7.436716061386292e-04 -3.732516369902585e+01 +1.229561668926190e+03 +2.917193158415187e-01 
+9.204000000000068e+00 +1.036756115695328e+00 +7.475931241821671e-04 -3.722857196489072e+01 +1.229426782997755e+03 +2.916877721592205e-01 
+9.206000000000069e+00 +1.041524907732471e+00 +7.515459495922057e-04 -3.713198033412205e+01 +1.229291941029609e+03 +2.916562387567601e-01 
+9.208000000000069e+00 +1.046331609658350e+00 +7.555304329634492e-04 -3.703538880670245e+01 +1.229157142997878e+03 +2.916247156285553e-01 
+9.210000000000070e+00 +1.051176646801584e+00 +7.595469303716678e-04 -3.693879738261462e+01 +1.229022388878710e+03 +2.915932027690279e-01 
+9.212000000000071e+00 +1.056060451187855e+00 +7.635958034919420e-04 -3.684220606184120e+01 +1.228887678648269e+03 +2.915617001726041e-01 
+9.214000000000071e+00 +1.060983461685675e+00 +7.676774197202383e-04 -3.674561484436487e+01 +1.228753012282735e+03 +2.915302078337145e-01 
+9.216000000000072e+00 +1.065946124156136e+00 +7.717921522983071e-04 -3.664902373016830e+01 +1.228618389758310e+03 +2.914987257467934e-01 
+9.218000000000073e+00 +1.070948891607009e+00 +7.759403804421886e-04 -3.655243271923420e+01 +1.228483811051212e+03 +2.914672539062798e-01 
+9.220000000000073e+00 +1.075992224351143e+00 +7.801224894743247e-04 -3.645584181154524e+01 +1.228349276137678e+03 +2.914357923066169e-01 
+9.222000000000074e+00 +1.081076590169431e+00 +7.843388709594459e-04 -3.635925100708415e+01 +1.228214784993962e+03 +2.914043409422518e-01 
+9.224000000000075e+00 +1.086202464478370e+00 +7.885899228443064e-04 -3.626266030583361e+01 +1.228080337596335e+03 +2.913728998076361e-01 
+9.226000000000075e+00 +1.091370330502548e+00 +7.928760496015046e-04 -3.616606970777637e+01 +1.227945933921090e+03 +2.913414688972256e-01 
+9.228000000000076e+00 +1.096580679452058e+00 +7.971976623774214e-04 -3.606947921289513e+01 +1.227811573944533e+03 +2.913100482054800e-01 
+9.230000000000077e+00 +1.101834010705043e+00 +8.015551791444210e-04 -3.597288882117265e+01 +1.227677257642992e+03 +2.912786377268636e-01 
+9.232000000000077e+00 +1.107130831995726e+00 +8.059490248576178e-04 -3.587629853259163e+01 +1.227542984992811e+03 +2.912472374558449e-01 
+9.234000000000078e+00 +1.112471659607742e+00 +8.103796316160714e-04 -3.577970834713486e+01 +1.227408755970352e+03 +2.912158473868960e-01 
+9.236000000000079e+00 +1.117857018573373e+00 +8.148474388288813e-04 -3.568311826478507e+01 +1.227274570551996e+03 +2.911844675144939e-01 
+9.238000000000079e+00 +1.123287442878555e+00 +8.193528933860996e-04 -3.558652828552504e+01 +1.227140428714140e+03 +2.911530978331194e-01 
+9.240000000000080e+00 +1.128763475674098e+00 +8.238964498348107e-04 -3.548993840933753e+01 +1.227006330433200e+03 +2.911217383372576e-01 
+9.242000000000081e+00 +1.134285669493123e+00 +8.284785705603930e-04 -3.539334863620532e+01 +1.226872275685610e+03 +2.910903890213977e-01 
+9.244000000000081e+00 +1.139854586475134e+00 +8.330997259732999e-04 -3.529675896611120e+01 +1.226738264447823e+03 +2.910590498800333e-01 
+9.246000000000082e+00 +1.145470798596818e+00 +8.377603947014488e-04 -3.520016939903797e+01 +1.226604296696307e+03 +2.910277209076618e-01 
+9.248000000000083e+00 +1.151134887909801e+00 +8.424610637884071e-04 -3.510357993496841e+01 +1.226470372407550e+03 +2.909964020987851e-01 
+9.250000000000083e+00 +1.156847446785776e+00 +8.472022288976976e-04 -3.500699057388535e+01 +1.226336491558056e+03 +2.909650934479091e-01 
+9.252000000000084e+00 +1.162609078168985e+00 +8.519843945232527e-04 -3.491040131577159e+01 +1.226202654124350e+03 +2.909337949495437e-01 
+9.254000000000085e+00 +1.168420395836624e+00 +8.568080742064560e-04 -3.481381216060997e+01 +1.226068860082971e+03 +2.909025065982033e-01 
+9.256000000000085e+00 +1.174282024667225e+00 +8.616737907598173e-04 -3.471722310838332e+01 +1.225935109410479e+03 +2.908712283884063e-01 
+9.258000000000086e+00 +1.180194600917291e+00 +8.665820764975440e-04 -3.462063415907446e+01 +1.225801402083447e+03 +2.908399603146752e-01 
+9.260000000000087e+00 +1.186158772506720e+00 +8.715334734734058e-04 -3.452404531266625e+01 +1.225667738078472e+03 +2.908087023715366e-01 
+9.262000000000087e+00 +1.192175199313068e+00 +8.765285337259792e-04 -3.442745656914154e+01 +1.225534117372164e+03 +2.907774545535213e-01 
+9.264000000000088e+00 +1.198244553475101e+00 +8.815678195316257e-04 -3.433086792848319e+01 +1.225400539941154e+03 +2.907462168551643e-01 
+9.266000000000089e+00 +1.204367519705880e+00 +8.866519036653990e-04 -3.423427939067409e+01 +1.225267005762086e+03 +2.907149892710047e-01 
+9.268000000000089e+00 +1.210544795615921e+00 +8.917813696703607e-04 -3.413769095569708e+01 +1.225133514811626e+03 +2.906837717955856e-01 
+9.270000000000090e+00 +1.216777092046448e+00 +8.969568121352836e-04 -3.404110262353507e+01 +1.225000067066457e+03 +2.906525644234543e-01 
+9.272000000000091e+00 +1.223065133413596e+00 +9.021788369814865e-04 -3.394451439417093e+01 +1.224866662503277e+03 +2.906213671491624e-01 
+9.274000000000092e+00 +1.229409658063351e+00 +9.074480617586187e-04 -3.384792626758757e+01 +1.224733301098804e+03 +2.905901799672653e-01 
+9.276000000000092e+00 +1.235811418638192e+00 +9.127651159501732e-04 -3.375133824376791e+01 +1.224599982829774e+03 +2.905590028723226e-01 
+9.278000000000093e+00 +1.242271182455577e+00 +9.181306412888765e-04 -3.365475032269485e+01 +1.224466707672938e+03 +2.905278358588981e-01 
+9.280000000000094e+00 +1.248789731898606e+00 +9.235452920822305e-04 -3.355816250435129e+01 +1.224333475605066e+03 +2.904966789215597e-01 
+9.282000000000094e+00 +1.255367864819629e+00 +9.290097355488170e-04 -3.346157478872019e+01 +1.224200286602946e+03 +2.904655320548793e-01 
